7465726
7504826
7585148
7585160
7585475
7585517
7585706
7585884
7586246
7586364
7586366
7586368
7586370
7586371
7586372
7586373
7586379
7586380
7586404
7586428
7586504
7586536
7586594
7586704
7587019
7587021
7587042
7587096
7587223
7587256
7587355
7587369
7587395
7587403
7587581
7587622
7587647
7587669
7587730
7587958
7588318
7588549
7588611
7588623
7588782
7588844
7588913
7589273
7589285
7589286
7589490
7589686
7589937
7589942
7589943
7589944
7589948
7589953
7589955
7589957
7589958
7589959
7589961
7589964
7589965
7589966
7589968
7589969
7589972
7589974
7589981
7589991
7589992
7589997
7589998
7590020
7590023
7590050
7590055
7590070
7590085
7590124
7590139
7590145
7590146
7590147
7590149
7590186
7590223
7590286
7590300
7590306
7590366
7590379
7590440
7590480
7590578
7590595
7590676
7590696
7590749
7590760
7590927
7590933
7591027
7591135
7591137
7591148
7591154
7591172
7591180
7591553
7591571
7591780
7591976
7592428
7592534
7592939
7592940
7592941
7592942
7592944
7592947
7592948
7592949
7592952
7592953
7592954
7592956
7592958
7592959
7592962
7592987
7592990
7592991
7592992
7593023
7593024
7593124
7593251
7593283
7593317
7593319
7593435
7593444
7593542
7593646
7593662
7593683
7593787
7593811
7593819
7593828
7593889
7593913
7594047
7594071
7594073
7594098
7594101
7594155
7594209
7594234
7594271
7594308
7594324
7594330
7594369
7594597
7594741
7595022
7595229
7595464
7595468
7595518
7595519
7595521
7595522
7595524
7595525
7595527
7595530
7595531
7595532
7595533
7595534
7595537
7595538
7595539
7595540
7595541
7595542
7595543
7595545
7595546
7595547
7595548
7595549
7595550
7595552
7595554
7595555
7595558
7595566
7595568
7595584
7595589
7595590
7595592
7595597
7595598
7595616
7595672
7595756
7595766
7595880
7595921
7596002
7596064
7596120
7596198
7596207
7596213
7596229
7596275
7596303
7596354
7596403
7596403
7596404
7596460
7596469
7596571
7596685
7596830
7596831
7596834
7596886
7596930
7597074
7597388
7597507
7597521
7597533
7597569
7597671
7597672
7597673
7597674
7597675
7597677
7597678
7597679
7597680
7597682
7597684
7597685
7597687
7597688
7597690
7597692
7597693
7597694
7597695
7597697
7597699
7597700
7597855
7597857
7597882
7597886
7597901
7597930
7597940
7598038
7598089
7598097
7598104
7598355
7598499
7598500
7598527
7598569
7598584
7598642
7598701
7598714
7599088
7599129
7599180
7599286
7599316
7599401
7599445
7599463
7599471
7599490
7599606
7599727
7599802
7600314
7600345
7600371
7600389
7600405
7600429
7600477
7600501
7600969
7600970
7600971
7600974
7600975
7600976
7600977
7600978
7600980
7600981
7600983
7600984
7600986
7600987
7600995
7600997
7600999
7601000
7601002
7601005
7601006
7601012
7601016
7601019
7601020
7601022
7601023
7601024
7601025
7601026
7601027
7601028
7601030
7601031
7601032
7601034
7601035
7601036
7601037
7601038
7601039
7601040
7601042
7601043
7601044
7601047
7601049
7601050
7601051
7601052
7601053
7601055
7601056
7601057
7601059
7601060
7601061
7601062
7601064
7601066
7601067
7601068
7601069
7601070
7601072
7601073
7601074
7601075
7601076
7601077
7601078
7601079
7601080
7601081
7601082
7601085
7601086
7601087
7601088
7601089
7601090
7601093
7601094
7601096
7601099
7601101
7601102
7601104
7601106
7601107
7601191
7601193
7601264
7601296
7601531
7601656
7601666
7601673
7601694
7601829
7601933
7601940
7601944
7602153
7602213
7602330
7602506
7602509
7602514
7602588
7602657
7602841
7602902
7602932
7603021
7603023
7603051
7603124
7603132
7603250
7603303
7603305
7603364
7603422
7603426
7603467
7603491
7603637
7603666
7603731
7603732
7603733
7603734
7603735
7603736
7603737
7603742
7603744
7603745
7603746
7603748
7603749
7603750
7603752
7603754
7603755
7603756
7603757
7603763
7603764
7603765
7603766
7603768
7603769
7603771
7603772
7603777
7603779
7603784
7603792
7603800
7603802
7603805
7603824
7603830
7603836
7603838
7603928
7604048
7604198
7604214
7604220
7604226
7604359
7604403
7604428
7604449
7604475
7604485
7604512
7604543
7604554
7605108
7605130
7605166
7605186
7605239
7605242
7605441
7605594
7605754
7605754
7605775
7605844
7605933
7605958
7606012
7606035
7606184
7606232
7606461
7606486
7606520
7606556
7606558
7606571
7606620
7606766
7606775
7606779
7606780
7606782
7606783
7606784
7606785
7606786
7606787
7606788
7606791
7606793
7606794
7606800
7606803
7606804
7606805
7606807
7606809
7606811
7606814
7606815
7606817
7606822
7606823
7606823
7606839
7606845
7606847
7606849
7606852
7606854
7606883
7606891
7607022
7607037
7607119
7607120
7607211
7607218
7607441
7607445
7607592
7607697
7607768
7607857
7607941
7608265
7608293
7608744
7608917
7608918
7608920
7608926
7608927
7608941
7608946
7608951
7608989
7609050
7609156
7609209
7609242
7609253
7609432
7609453
7609556
7609927
7609959
7609992
7609994
7610031
7610042
7610105
7610349
7610473
7610494
7610513
7610538
7610628
7610729
7610787
7611050
7611198
7611396
7611399
7611413
7611541
7611543
7611545
7611546
7611547
7611549
7611550
7611551
7611552
7611554
7611555
7611557
7611558
7611559
7611576
7611579
7611689
7611714
7611757
7611909
7612140
7612233
7612296
7612358
7612374
7615617
7615619
7615706
7615718
7616744
7617054
7617057
7617181
7617214
7617221
7617241
7617280
7617297
7617317
7617329
7617562
7617752
7617863
7617920
7617929
7617932
7617940
7617994
7617997
7618006
7618011
7618015
7618129
7618130
7618131
7618132
7618135
7618136
7618137
7618138
7618143
7618144
7618145
7618146
7618148
7618150
7618152
7618157
7618159
7618161
7618164
7618170
7618171
7618172
7618173
7618174
7618175
7618178
7618179
7618180
7618181
7618182
7618183
7618184
7618188
7618190
7618191
7618194
7618196
7618217
7618221
7618222
7618223
7618224
7618225
7618230
7618231
7618232
7618550
7618627
7618628
7618809
7618900
7618901
7618999
7619016
7619021
7619042
7619058
7619070
7619074
7619099
7619105
7619122
7619151
7619161
7619216
7619256
7619276
7619365
7619367
7619393
7619520
7619535
7619589
7619752
7619813
7619880
7620107
7620197
7620267
7620327
7620335
7620465
7620524
7620631
7620633
7620634
7620635
7620636
7620637
7620638
7620640
7620644
7620646
7620647
7620652
7620653
7620657
7620658
7620659
7620662
7620663
7620673
7620676
7620678
7620683
7620684
7620686
7620691
7620692
7620696
7620707
7620740
7620748
7620837
7620921
7621193
7621216
7621253
7621275
7621375
7621605
7621627
7621663
7621674
7621803
7622114
7622207
7622236
7622247
7622254
7622583
7622702
7622865
7622923
7622929
7622995
7623105
7623180
7623250
7623408
7623417
7623433
7623535
7623545
7623625
7623645
7623680
7623682
7623683
7623685
7623686
7623688
7623690
7623692
7623693
7623695
7623698
7623700
7623701
7623707
7623710
7623711
7623714
7623718
7623735
7623737
7623740
7623790
7624047
7624051
7624194
7624231
7624535
7624548
7624577
7624685
7624691
7624754
7624786
7624814
7624853
7624895
7624912
7624913
7624915
7624944
7625878
7625965
7626029
7626090
7626263
7626297
7626313
7626315
7626396
7626400
7626499
7626525
7626526
7626528
7626530
7626531
7626533
7626535
7626536
7626537
7626538
7626539
7626546
7626551
7626552
7626557
7626558
7626562
7626729
7626815
7626852
7626924
7626995
7627020
7627061
7627080
7627160
7627203
7627310
7627389
7627397
7627403
7627449
7627543
7627570
7627644
7627725
7627769
7627817
7627859
7627870
7627894
7627913
7627982
7627983
7627985
7627998
7628199
7628229
7628286
7628487
7628584
7628590
7628690
7628775
7628777
7628845
7628853
7628889
7628889
7628962
7629003
7629618
7629718
7629973
7629990
7630021
7630086
7630141
7630211
7630312
7630326
7630332
7630353
7630354
7630355
7630356
7630357
7630358
7630359
7630360
7630361
7630364
7630366
7630371
7630373
7630374
7630377
7630381
7630386
7630392
7630395
7630483
7630495
7630603
7630608
7630643
7630992
7631100
7631181
7631290
7631309
7631388
7631449
7632118
7632126
7632154
7632379
7632597
7632827
7632889
7632980
7633006
7633110
7633120
7633161
7633397
7633485
7633548
7633549
7633551
7633553
7633556
7633557
7633559
7633560
7633561
7633562
7633563
7633565
7633566
7633567
7633568
7633571
7633572
7633573
7633574
7633575
7633576
7633581
7633582
7633583
7633588
7633592
7633600
7633615
7633616
7633617
7633618
7633619
7633620
7633621
7633622
7633623
7633624
7633625
7633626
7633627
7633628
7633639
7633640
7633641
7633642
7633643
7633649
7633650
7633652
7633653
7633654
7633660
7633662
7633664
7633670
7633699
7633719
7633800
7633817
7633879
7633890
7633978
7634024
7634055
7634099
7634143
7634177
7634182
7634191
7634192
7634268
7634364
7634372
7634384
7634385
7634466
7634475
7634507
7634535
7634570
7634744
7634939
7634994
7635084
7635141
7635149
7635158
7635321
7635708
7635708
7635760
7635810
7635900
7635914
7635937
7635983
7636044
7636066
7636211
7636279
7636280
7636284
7636286
7636287
7636289
7636291
7636293
7636294
7636295
7636296
7636298
7636299
7636300
7636301
7636303
7636304
7636307
7636309
7636312
7636313
7636314
7636315
7636317
7636322
7636324
7636326
7636327
7636328
7636329
7636331
7636332
7636423
7636458
7636498
7636823
7636904
7636999
7637018
7637027
7637058
7637091
7637128
7637133
7637268
7637311
7637320
7637340
7637400
7637575
7637725
7637731
7637820
7637857
7637972
7637999
7638090
7638202
7638325
7638393
7638423
7638537
7638630
7638677
7638697
7638810
7638831
7638850
7638905
7638911
7639132
7639252
7639284
7639367
7639390
7639402
7639408
7639411
7639412
7639413
7639414
7639415
7639418
7639420
7639424
7639425
7639425
7639426
7639427
7639428
7639430
7639433
7639434
7639435
7639436
7639437
7639440
7639444
7639445
7639446
7639447
7639448
7639450
7639452
7639453
7639454
7639468
7639484
7639485
7639489
7639494
7639498
7639515
7639753
7639771
7639920
7639939
7639945
7639973
7640034
7640063
7640082
7640245
7640251
7640336
7640379
7640381
7640418
7640431
7640655
7640690
7640864
7640932
7641126
7641132
7641152
7641178
7641376
7641432
7641491
7641516
7641610
7641611
7641612
7641613
7641615
7641616
7641617
7641618
7641622
7641623
7641627
7641628
7641630
7641631
7641632
7641635
7641636
7641638
7641639
7641641
7641642
7641643
7641644
7641645
7641647
7641649
7641651
7641652
7641657
7641666
7641681
7641689
7641783
7641934
7642039
7642086
7642129
7642169
7642216
7642369
7642378
7642737
7642757
7642770
7642772
7642893
7642975
7643167
7643185
7643402
7643477
7643701
7643730
7643731
7643799
7644027
7644035
7644105
7644279
7644315
7644524
7644557
7644640
7644723
7644724
7644741
7644795
7644912
7644913
7644917
7644918
7644920
7644921
7644922
7644923
7644924
7644926
7644927
7644928
7644929
7644930
7644931
7644933
7644933
7644936
7644937
7644939
7644947
7644948
7645001
7645003
7645004
7645005
7645006
7645011
7645013
7645014
7645015
7645082
7645087
7645104
7645167
7645463
7645488
7645509
7645627
7645686
7645747
7645793
7645865
7645869
7645900
7646418
7646523
7646640
7646711
7646759
7646971
7646979
7647236
7647295
7647357
7647464
7647471
7647472
7647473
7647474
7647475
7647478
7647481
7647481
7647483
7647486
7647487
7647489
7647490
7647492
7647493
7647496
7647498
7647499
7647500
7647501
7647502
7647526
7647571
7647716
7647904
7648022
7648280
7648299
7648319
7648348
7648350
7648361
7648380
7648427
7648452
7648464
7648531
7648536
7648542
7648603
7648722
7648791
7648918
7648930
7648960
7648992
7649021
7649156
7649176
7649336
7649345
7649364
7649598
7649725
7649916
7649996
7649999
7650003
7650394
7650399
7650403
7650404
7650406
7650407
7650408
7650409
7650413
7650414
7650415
7650417
7650419
7650421
7650422
7650423
7650424
7650427
7650429
7650430
7650432
7650438
7650439
7650441
7650442
7650448
7650449
7650450
7650451
7650452
7650453
7650455
7650456
7650457
7650458
7650459
7650460
7650461
7650462
7650463
7650464
7650465
7650466
7650473
7650475
7650476
7650483
7650486
7650488
7650489
7650490
7650496
7650543
7650560
7650600
7650766
7650798
7650837
7650972
7650973
7650976
7650977
7650982
7650987
7651027
7651108
7651132
7651161
7651198
7651232
7651259
7651422
7651488
7651530
7651544
7651603
7651720
7651756
7651857
7651863
7651878
7652109
7652154
7652675
7652916
7652922
7652990
7653013
7653128
7653228
7653293
7653308
7653362
7653371
7653686
7653687
7653689
7653693
7653695
7653698
7653701
7653703
7653705
7653707
7653708
7653710
7653712
7653713
7653714
7653716
7653717
7653718
7653719
7653720
7653721
7653723
7653724
7653725
7653726
7653728
7653732
7653733
7653734
7653756
7653759
7653764
7653765
7653793
7653794
7653796
7653825
7653887
7653928
7653939
7653986
7654260
7654314
7654340
7654366
7654378
7654399
7654419
7654462
7654501
7654558
7654574
7654611
7654618
7654671
7654685
7654841
7655107
7655191
7655269
7655315
7655338
7655557
7655563
7655564
7655612
7655618
7655619
7655620
7655673
7655742
7655751
7655790
7656068
7656099
7656121
7656164
7656302
7656340
7656341
7656343
7656347
7656349
7656350
7656352
7656353
7656354
7656358
7656360
7656363
7656417
7656703
7656922
7657010
7657221
7657235
7657323
7657359
7657500
7657508
7657522
7657543
7657643
7657648
7657693
7657698
7657700
7658196
7658238
7658493
7658495
7658495
7658719
7658767
7658989
7658998
7659093
7659096
7659098
7659099
7659100
7659102
7659104
7659105
7659107
7659112
7659113
7659114
7659115
7659118
7659119
7659121
7659122
7659123
7659124
7659125
7659126
7659128
7659131
7659290
7659346
7659402
7659440
7659526
7659662
7659677
7659808
7659831
7660029
7660067
7660089
7660170
7660174
7660234
7660274
7660321
7660334
7660444
7660479
7660486
7667912
7667970
7667999
7668426
7668515
7668664
7668728
7668773
7668785
7668915
7668916
7668917
7668919
7668923
7668954
7668964
7669132
7669133
7669290
7669309
7669333
7669447
7669463
7669485
7669592
7669847
7669881
7669923
7670056
7670973
7671100
7671140
7671340
7671414
7671619
7671691
7671713
7671869
7671877
7671878
7671879
7671880
7671883
7671884
7671885
7671886
7671888
7671890
7671891
7671892
7671893
7671894
7671897
7671898
7671900
7671903
7671905
7671907
7671908
7671910
7671912
7671913
7671915
7671918
7671919
7671922
7671924
7671942
7671960
7671962
7671963
7672004
7672145
7672196
7672237
7672263
7672424
7672434
7672535
7672567
7672597
7672622
7672793
7672889
7672929
7672948
7673015
7673052
7673078
7673096
7673279
7673374
7673690
7673789
7673838
7674029
7674075
7674123
7674219
7674241
7674272
7674275
7674402
7674494
7674499
7674502
7674586
7674670
7674671
7674673
7674674
7674677
7674680
7674682
7674683
7674688
7674689
7674691
7674692
7674695
7674696
7674699
7674700
7674701
7674704
7674705
7674706
7674707
7674708
7674709
7674710
7674711
7674713
7674714
7674715
7674718
7674721
7674722
7674746
7674747
7674748
7674749
7674750
7674751
7674752
7674753
7674760
7674777
7674797
7674798
7674801
7674884
7674961
7675113
7675123
7675254
7675303
7675321
7675336
7675411
7675453
7675488
7675575
7675616
7675648
7675757
7675794
7675811
7675877
7676442
7676515
7676652
7676755
7676886
7676979
7677337
7677482
7677534
7677948
7677951
7677953
7677954
7677956
7677958
7677959
7677960
7677961
7677962
7677963
7677964
7677965
7677967
7677968
7677971
7677973
7677974
7677975
7677980
7677991
7677992
7677993
7677994
7677995
7677997
7677998
7677999
7678000
7678006
7678007
7678017
7678023
7678039
7678066
7678123
7678125
7678147
7678216
7678420
7678562
7678692
7678698
7678805
7678812
7678817
7679444
7679524
7679641
7679645
7679650
7679737
7679997
7679998
7680098
7680284
7680285
7680288
7680289
7680292
7680293
7680294
7680295
7680297
7680298
7680300
7680302
7680304
7680307
7680308
7680309
7680314
7680333
7680334
7680337
7680750
7680851
7681054
7681324
7681332
7681350
7681393
7681496
7681526
7681671
7681673
7681674
7681710
7681763
7681789
7681809
7682070
7682155
7682186
7682484
7682556
7682602
7682736
7682798
7682800
7682917
7683095
7683261
7683262
7683263
7683264
7683265
7683266
7683269
7683272
7683273
7683274
7683275
7683276
7683277
7683278
7683279
7683280
7683283
7683284
7683296
7683430
7683539
7683551
7683584
7683590
7683598
7683629
7683667
7683686
7683780
7683819
7683909
7683997
7684140
7684401
7684419
7684420
7684784
7684789
7684893
7685021
7685047
7685049
7685051
7685058
7685110
7685146
7685195
7685229
7685265
7685321
7685544
7685681
7686174
7686193
7686317
7686320
7686322
7686323
7686324
7686327
7686335
7686348
7686349
7686379
7686444
7686588
7686866
7687000
7687076
7687094
7687223
7687227
7687231
7687241
7687299
7687425
7687997
7688057
7688115
7688117
7688138
7688260
7688357
7688435
7688472
7688510
7688604
7688647
7688648
7688652
7688655
7688656
7688657
7688658
7688661
7688663
7688664
7688666
7688667
7688668
7688669
7688670
7688671
7688673
7688675
7688677
7688683
7688689
7688690
7688694
7688798
7688803
7688865
7688910
7688985
7689056
7689096
7689111
7689211
7689226
7689329
7689342
7689545
7689559
7689559
7689674
7689683
7689684
7689865
7689868
7690186
7690255
7690477
7690710
7690797
7690840
7690975
7691062
7691084
7691091
7691130
7691152
7691207
7691349
7691364
7691419
7691454
7691470
7691481
7691578
7691677
7691678
7691684
7691686
7691689
7691691
7691695
7691696
7691699
7691700
7691701
7691703
7691704
7691705
7691707
7691713
7691716
7691717
7691863
7691870
7691921
7692142
7692221
7692232
7692233
7692273
7692294
7692301
7692444
7692447
7692552
7692641
7692823
7693241
7693287
7693327
7693406
7693893
7693972
7693995
7694104
7694200
7694202
7694204
7694205
7694206
7694210
7694211
7694212
7694214
7694215
7694216
7694219
7694224
7694229
7694230
7694232
7694236
7694237
7694243
7694244
7694247
7694248
7694353
7694395
7694454
7694457
7694509
7694521
7698708
7698748
7698781
7698896
7698935
7699082
7699149
7699175
7699334
7699393
7699530
7699557
7700122
7700159
7700315
7700318
7700325
7700341
7700357
7700362
7700370
7700638
7700715
7700769
7700892
7700994
7701007
7701036
7701064
7701174
7701176
7701177
7701179
7701182
7701184
7701185
7701186
7701190
7701192
7701193
7701194
7701195
7701196
7701197
7701198
7701200
7701202
7701203
7701205
7701206
7701210
7701220
7701226
7701231
7701232
7701235
7701251
7701254
7701273
7701354
7701362
7701446
7701447
7701477
7701501
7701628
7701639
7701725
7701914
7701925
7701961
7702130
7702137
7702180
7702181
7702185
7702229
7702242
7702257
7702264
7702313
7702316
7702449
7702936
7703105
7703180
7703290
7703299
7703364
7703376
7703500
7703559
7703580
7703601
7703630
7703756
7703980
7703982
7704110
7704113
7704127
7704143
7704204
7704274
7704391
7704456
7704474
7704521
7704525
7704526
7704527
7704532
7704535
7704536
7704537
7704538
7704539
7704541
7704544
7704545
7704548
7704549
7704550
7704551
7704553
7704554
7704555
7704556
7704557
7704559
7704563
7704568
7704577
7704578
7704582
7704586
7704590
7704592
7704605
7704608
7704609
7704610
7704612
7704618
7704625
7704627
7704628
7704631
7704632
7704633
7704656
7704752
7704865
7704909
7704952
7704986
7705019
7705025
7705108
7705220
7705453
7705547
7705557
7705735
7705739
7705740
7705760
7705781
7705812
7705824
7705830
7705846
7705879
7705916
7706005
7706197
7706208
7706265
7706627
7706641
7706684
7706710
7706711
7706785
7706833
7706834
7706835
7706836
7706837
7706839
7706845
7706846
7706849
7706850
7706853
7706855
7706856
7706857
7706859
7706861
7706862
7706863
7706867
7706871
7706873
7706875
7706878
7706881
7706882
7706894
7706896
7706900
7706901
7706904
7706906
7706917
7706918
7706919
7706920
7706922
7706927
7706946
7706947
7706950
7707095
7707157
7707173
7707191
7707200
7707203
7707238
7707301
7707308
7707379
7707565
7707627
7707758
7707867
7707898
7707956
7707998
7708045
7708073
7708103
7708122
7708305
7708409
7708509
7708556
7708606
7708692
7708771
7709053
7709122
7709171
7709231
7709318
7709462
7709487
7709585
7709588
7709589
7709593
7709594
7709595
7709596
7709598
7709599
7709603
7709604
7709606
7709607
7709608
7709609
7709611
7709613
7709614
7709615
7709617
7709618
7709620
7709621
7709623
7709624
7709625
7709627
7709635
7709648
7709670
7709677
7709684
7709685
7709687
7709698
7709715
7709979
7710005
7710085
7710139
7710147
7710274
7710331
7710534
7710579
7710674
7710707
7710734
7710748
7710766
7710775
7710818
7710821
7710833
7710841
7710857
7710860
7710916
7710951
7710978
7710978
7710981
7710984
7711069
7711261
7711504
7711516
7711535
7711560
7711570
7711702
7711905
7711982
7712020
7712122
7712153
7712293
7712350
7712400
7712488
7712594
7712613
7712629
7712641
7712663
7712701
7712703
7712704
7712705
7712706
7712707
7712711
7712712
7712713
7712715
7712721
7712722
7712725
7712726
7712730
7712732
7712734
7712735
7712736
7712737
7712739
7712740
7712742
7712746
7712751
7712752
7712757
7712758
7712761
7712764
7712768
7712769
7712793
7712874
7712885
7712975
7712988
7713033
7713136
7713220
7713338
7713423
7713487
7713506
7713542
7713544
7713581
7713588
7713669
7713715
7713863
7713954
7713966
7714043
7714076
7714116
7714163
7714476
7714761
7715123
7715148
7715246
7715258
7715296
7715392
7715501
7715514
7715795
7715927
7716037
7716038
7716040
7716041
7716043
7716044
7716047
7716048
7716049
7716050
7716051
7716052
7716053
7716054
7716055
7716056
7716059
7716060
7716061
7716062
7716063
7716065
7716071
7716072
7716073
7716074
7716076
7716079
7716081
7716083
7716089
7716096
7716117
7716120
7716122
7716128
7716347
7716405
7716442
7716444
7716453
7716459
7716579
7716599
7716618
7716708
7716776
7716806
7716863
7716900
7716907
7716917
7716936
7716963
7717078
7717093
7717259
7717289
7717382
7717445
7717514
7717635
7717693
7717716
7717898
7718189
7718360
7718466
7718915
7718920
7718921
7718922
7718923
7718924
7718925
7718926
7718928
7718930
7718932
7718937
7718938
7718940
7718945
7718946
7718948
7718953
7718954
7718957
7718960
7718961
7718962
7718968
7718970
7718971
7718972
7718980
7718981
7718994
7718996
7718998
7718999
7719003
7719016
7719058
7719072
7719284
7719285
7719321
7719442
7719459
7719466
7719511
7719543
7719566
7719581
7719583
7719600
7719618
7719637
7719655
7719729
7719777
7720091
7720243
7720372
7720524
7720615
7720638
7720653
7720665
7720694
7720696
7720702
7720731
7720759
7721143
7721504
7721534
7721624
7721625
7721627
7721628
7721629
7721630
7721632
7721633
7721634
7721635
7721637
7721638
7721639
7721640
7721641
7721642
7721643
7721644
7721645
7721646
7721647
7721649
7721650
7721652
7721658
7721678
7721690
7721802
7721840
7721843
7721844
7721896
7721982
7722068
7722076
7722080
7722135
7722256
7722270
7722280
7722319
7722335
7722472
7722555
7722669
7722679
7722682
7722726
7722809
7722963
7722995
7723033
7723035
7723312
7723322
7723377
7723405
7723498
7723617
7723700
7723909
7723912
7723991
7724105
7724106
7724110
7724223
7724330
7724353
7724358
7724433
7724435
7724436
7724437
7724438
7724439
7724440
7724442
7724444
7724445
7724445
7724447
7724448
7724449
7724450
7724451
7724456
7724457
7724458
7724460
7724464
7724497
7724499
7724500
7724513
7724688
7724726
7724730
7724838
7724846
7724922
7724999
7725149
7725176
7725325
7725326
7725329
7725330
7725437
7725455
7725669
7725674
7725692
7725716
7726016
7726292
7726389
7726657
7726740
7726743
7726744
7726745
7726746
7726747
7726748
7726749
7726750
7726751
7726753
7726754
7726755
7726757
7726759
7726760
7726761
7726765
7726766
7726767
7726770
7726770
7726771
7726774
7726823
7726857
7726864
7726881
7726894
7726981
7727044
7727047
7727106
7727113
7727165
7727261
7727363
7727434
7727593
7727605
7727623
7727667
7727694
7727699
7727699
7727743
7727753
7728187
7728264
7728269
7728310
7728459
7728468
7728479
7728783
7729492
7729815
7729824
7729826
7729835
7729993
7730031
7730067
7730344
7730347
7730453
7730651
7730653
7730654
7730655
7730656
7730657
7730658
7730659
7730660
7730662
7730663
7730664
7730667
7730668
7730669
7730672
7730674
7730679
7730680
7730682
7730684
7730688
7730691
7730692
7730695
7730696
7730716
7730769
7730845
7731009
7731163
7731267
7731515
7731577
7731672
7731878
7731954
7732368
7732369
7732417
7732457
7732466
7732669
7732691
7732696
7732698
7732707
7732752
7732756
7732757
7732758
7732768
7732867
7732988
7733115
7733138
7733174
7733285
7733493
7733553
7733573
7733869
7734026
7734098
7734141
7734254
7734257
7734276
7734278
7734321
7734321
7734471
7734475
7734476
7734478
7734479
7734481
7734483
7734484
7734485
7734486
7734488
7734489
7734490
7734491
7734492
7734493
7734494
7734495
7734501
7734502
7734507
7734511
7734512
7734517
7734524
7734531
7734534
7734564
7734749
7734896
7734945
7734972
7735070
7735112
7735350
7735424
7735427
7735431
7735444
7735457
7735668
7736136
7736138
7736158
7736388
7736420
7736450
7736459
7736471
7736487
7736618
7736708
7736712
7736715
7736780
7736846
7736962
7736995
7737037
7737071
7737268
7737313
7737350
7737413
7737414
7737416
7737417
7737419
7737420
7737421
7737423
7737424
7737427
7737432
7737438
7737439
7737442
7737444
7737445
7737447
7737448
7737449
7737449
7737454
7737455
7737456
7737458
7737462
7737489
7737504
7737653
7737887
7737888
7737906
7737940
7737976
7738068
7738300
7738309
7738372
7738407
7738425
7738462
7738488
7738508
7738601
7738608
7738610
7738885
7738898
7739215
7739258
7739269
7739326
7739397
7739410
7739535
7739549
7739808
7739836
7739923
7740306
7740347
7740527
7740696
7740738
7740758
7740924
7740947
7740957
7740989
7741035
7741087
7741101
7741204
7741313
7741346
7741516
7741549
7741560
7741565
7741608
7741616
7741625
7741628
7741729
7741738
7741839
7741841
7741845
7741847
7741863
7741879
7741887
7742153
7742177
7742184
7742241
7742278
7742281
7742494
7742617
7742757
7742783
7742978
7743095
7743176
7743178
7743251
7743252
7743277
7743424
7743472
7743534
7743578
7743579
7743591
7743693
7743771
7743772
7743775
7743777
7743778
7743779
7743780
7743782
7743784
7743785
7743788
7743789
7743793
7743794
7743795
7743797
7743799
7743800
7743801
7743804
7743809
7743813
7743814
7743819
7743821
7743822
7743823
7743827
7743831
7743836
7743840
7743845
7743846
7743848
7743851
7743853
7743857
7743859
7743894
7743896
7743897
7743915
7743920
7744021
7744074
7744130
7744183
7744278
7744363
7744381
7744444
7744691
7744719
7744786
7744846
7744931
7745217
7745754
7745838
7745982
7746281
7746284
7746336
7746534
7746620
7746630
7746676
7746681
7746971
7747005
7747020
7747049
7747053
7747137
7747261
7747308
7747327
7747346
7747349
7747351
7747352
7747353
7747354
7747355
7747357
7747358
7747361
7747366
7747367
7747371
7747407
7747409
7747424
7747533
7747555
7747623
7747646
7747714
7747732
7747738
7747767
7747784
7747830
7747833
7748373
7748757
7748953
7748954
7749041
7749155
7749200
7749317
7749424
7749425
7749446
7749675
7749788
7749879
7749880
7749891
7749897
7750122
7750255
7750258
7750297
7750301
7750540
7750600
7750603
7750604
7750605
7750606
7750609
7750611
7750614
7750616
7750618
7750620
7750621
7750625
7750631
7750632
7750633
7750634
7750638
7750649
7750655
7750694
7750769
7750864
7750936
7750952
7750984
7751014
7751015
7751051
7751072
7751177
7751276
7751277
7751319
7751581
7751627
7751656
7751726
7752205
7752352
7752362
7752442
7752449
7752457
7752495
7752565
7752606
7753043
7753206
7753223
7753227
7753336
7753373
7753551
7753552
7753553
7753555
7753558
7753559
7753560
7753561
7753562
7753566
7753568
7753569
7753570
7753572
7753573
7753574
7753576
7753577
7753578
7753581
7753582
7753584
7753589
7753590
7753592
7753596
7753617
7753618
7753619
7753640
7753643
7753881
7753882
7753977
7754099
7754134
7754209
7754374
7754377
7754399
7754399
7754459
7754463
7754549
7754571
7754571
7754786
7754792
7754796
7754801
7755028
7755088
7755127
7755213
7755370
7755717
7755730
7755803
7755813
7756349
7756350
7756383
7756564
7756637
7756661
7756702
7756873
7756876
7756877
7756878
7756879
7756880
7756882
7756884
7756885
7756886
7756887
7756891
7756901
7756903
7756913
7756924
7756926
7756927
7756940
7756997
7757160
7757461
7757621
7757659
7757671
7757672
7757750
7757766
7757801
7757819
7757827
7757829
7757839
7757842
7758567
7758941
7759077
7759337
7759346
7759369
7759419
7759437
7759443
7759481
7759561
7759698
7759730
7759769
7759805
7759809
7760027
7760027
7760059
7760059
7760137
7760162
7760177
7760192
7760193
7760196
7760200
7760201
7760202
7760203
7760204
7760205
7760206
7760210
7760211
7760213
7760218
7760239
7760245
7760261
7760291
7760428
7760519
7760536
7760589
7760684
7760704
7760744
7760786
7760814
7760825
7760902
7761005
7761197
7761254
7761467
7761540
7761547
7761750
7761751
7761756
7761819
7761837
7761899
7761996
7762056
7762057
7762135
7762147
7762285
7762313
7762339
7762361
7762534
7762567
7762568
7762569
7762571
7762573
7762575
7762576
7762577
7762578
7762580
7762584
7762591
7762592
7762598
7762636
7762637
7762658
7762658
7762659
7762670
7762727
7762841
7762871
7762973
7763130
7763230
7763247
7763274
7763377
7763395
7763446
7763451
7763480
7763488
7763555
7763627
7763738
7763753
7763775
7763782
7763942
7763958
7764070
7764109
7764127
7764131
7764219
7764277
7764446
7764519
7764623
7764640
7764646
7764693
7764871
7765033
7765037
7765038
7765121
7765183
7765184
7765185
7765186
7765188
7765189
7765191
7765192
7765193
7765194
7765197
7765200
7765201
7765202
7765205
7765207
7765209
7765210
7765212
7765224
7765229
7765243
7765305
7765366
7765408
7765441
7765505
7765593
7765621
7765665
7765716
7766055
7766108
7766110
7766155
7766252
7766268
7766622
7766645
7766723
7766916
7768079
7768145
7768579
7768592
7768813
7769190
7769287
7769322
7769695
7769884
7769893
7769895
7769896
7769897
7769898
7769903
7769907
7769914
7769915
7769919
7769919
7769920
7769923
7769928
7769929
7769931
7769934
7769938
7770558
7770584
7770647
7771335
7771358
7771737
7771739
7771795
7771800
7772368
7772371
7772382
7772446
7772451
7772575
7772881
7773253
7773260
7773277
7773286
7773301
7773342
7773351
7773360
7773385
7773389
7773408
7773412
7773429
7773437
7773445
7773458
7773480
7773484
7773569
7773594
7773599
7773619
7773776
7773800
7773804
7773837
7773886
7773963
7774027
7774040
7774055
7774190
7774229
7774274
7774317
7774319
7774349
7774467
7774584
7774726
7774916
7774937
7774981
7774991
7775083
7775111
7775151
7775155
7775267
7775279
7775420
7775467
7775472
7775531
7775532
7775607
7775613
7775614
7775615
7775616
7775617
7775619
7775620
7775621
7775622
7775623
7775624
7775626
7775629
7775630
7775632
7775635
7775640
7775644
7775649
7775650
7775651
7775653
7775656
7775657
7775660
7775661
7775662
7775664
7775668
7775694
7775695
7775699
7775712
7775749
7775795
7775849
7775855
7775961
7775976
7775981
7776006
7776048
7776065
7776167
7776358
7776363
7776375
7776474
7776510
7776817
7776872
7776951
7776965
7777125
7777159
7777295
7777334
7777374
7777436
7777501
7777531
7777673
7777724
7777761
7777762
7777770
7778102
7778158
7778161
7778165
7778195
7778287
7778366
7778367
7778368
7778369
7778370
7778371
7778372
7778373
7778375
7778376
7778377
7778378
7778383
7778384
7778386
7778387
7778389
7778390
7778390
7778392
7778397
7778398
7778399
7778401
7778405
7778406
7778407
7778411
7778412
7778415
7778416
7778417
7778419
7778423
7778424
7778441
7778449
7778450
7778475
7778531
7778537
7778583
7778605
7778673
7778725
7778736
7778772
7778862
7779058
7779126
7779160
7779200
7779201
7779203
7779206
7779221
7779223
7779227
7779260
7779287
7779295
7779313
7779377
7779519
7779541
7779555
7779577
7779620
7779691
7779771
7779909
7779956
7779960
7779960
7780031
7780032
7780074
7780096
7780147
7780190
7780297
7780360
7780432
7780504
7781042
7781084
7781252
7781397
7781415
7781632
7781698
7781700
7781701
7781702
7781705
7781706
7781707
7781708
7781709
7781713
7781716
7781717
7781718
7781719
7781722
7781723
7781724
7781725
7781727
7781735
7781737
7781740
7781741
7781746
7781749
7781750
7781751
7781754
7781756
7781757
7781758
7781759
7781763
7781771
7781777
7781791
7781791
7781809
7781814
7781844
7781871
7781939
7782004
7782012
7782023
7782045
7782063
7782081
7782141
7782168
7782190
7782321
7782321
7782327
7782398
7782450
7782503
7782653
7782727
7782768
7782834
7782843
7782975
7783143
7783146
7783512
7783639
7783849
7783851
7783852
7783854
7783855
7783856
7783858
7783859
7783860
7783861
7783862
7783863
7783864
7783865
7783881
7783898
7783917
7784166
7784270
7784289
7784452
7784502
7784512
7784514
7784609
7784722
7784728
7784981
7785073
7785255
7785407
7785630
7785791
7785949
7786064
7786102
7786276
7786321
7786349
7786492
7786493
7786494
7786495
7786496
7786498
7786499
7786500
7786501
7786502
7786506
7786507
7786508
7786509
7786510
7786511
7786513
7786514
7786515
7786519
7786524
7786535
7786542
7786549
7786561
7786623
7786756
7786770
7786814
7786819
7786854
7786863
7786909
7787042
7787276
7787279
7787378
7787387
7787415
7787421
7787505
7787505
7787517
7787534
7787584
7787733
7787736
7787738
7787814
7787823
7788022
7788031
7788064
7788313
7788416
7788421
7788429
7788436
7788484
7788901
7788968
7788989
7789073
7789097
7789104
7789284
7789286
7789287
7789288
7789289
7789290
7789291
7789292
7789293
7789294
7789296
7789298
7789300
7789302
7789304
7789335
7789336
7789344
7789349
7789389
7789789
7789795
7790427
7790473
7790568
7790744
7790766
7790792
7790806
7790809
7790817
7790822
7790856
7790866
7790868
7790891
7793114
7795571
7796710
7798046
7853020
